id,attr_time,attr_x,attr_y,attr_z
1486934,1531921245003,0.00852238,-0.0010653,-0.0170448
1486935,1531921245023,0.00745708,-0.00639178,-0.01811
1486936,1531921245043,0.00213059,-0.00852238,-0.0191753
1486937,1531921245063,0.00426119,-0.00532648,-0.0117183
1486938,1531921245083,-0.00213059,-0.00639178,0.00319589
1486939,1531921245103,-0.00319589,-0.00213059,0.00745708
1486940,1531921245123,-0.00639178,-0.0010653,0.00745708
1486941,1531921245143,-0.00426119,-0.00532648,0.00426119
1486942,1531921245163,-0.010653,-0.00532648,0.00639178
1486943,1531921245181,-0.00958767,-0.00213059,0.0117183
1486944,1531921245202,-0.0149142,-0.00213059,0.0202406
1486945,1531921245222,-0.0170448,-0.00213059,0.0223712
1486946,1531921245244,-0.0170448,-0.00426119,0.028763
1486947,1531921245261,-0.0202406,-0.00319589,0.028763
1486948,1531921245280,-0.0191753,-0.00213059,0.0255671
1486949,1531921245304,-0.01811,-0.00319589,0.0266324
1486950,1531921245324,-0.0159795,0.0,0.0276977
1486951,1531921245343,-0.0159795,-0.00319589,0.0266324
1486952,1531921245363,-0.0117183,-0.00319589,0.0213059
1486953,1531921245384,-0.00958767,-0.0010653,0.0149142
1486954,1531921245404,-0.00852238,-0.00213059,0.0170448
1486955,1531921245424,-0.00958767,-0.00532648,0.0213059
1486956,1531921245444,-0.00958767,-0.00426119,0.01811
1486957,1531921245464,-0.0117183,-0.00532648,0.01811
1486958,1531921245484,-0.010653,0.0,0.01811
1486959,1531921245504,-0.0170448,-0.00319589,0.0255671
1486960,1531921245523,-0.01811,-0.00319589,0.0362201
1486961,1531921245544,-0.0245018,0.0010653,0.039416
1486962,1531921245564,-0.0234365,0.00213059,0.0372854
1486963,1531921245585,-0.0234365,0.0010653,0.0372854
1486964,1531921245605,-0.0298283,-0.0117183,0.0436772
1486965,1531921245625,-0.0255671,-0.0117183,0.0372854
1486966,1531921245645,-0.0255671,-0.00852238,0.0223712
1486967,1531921245665,-0.0127836,-0.00958767,0.00426119
1486968,1531921245685,0.00319589,-0.00852238,-0.0213059
1486969,1531921245705,0.0308936,-0.0010653,-0.0585913
1486970,1531921245725,0.0468731,-0.00426119,-0.0948114
1486971,1531921245745,0.0596566,-0.00213059,-0.10866
1486972,1531921245765,0.0671137,0.00213059,-0.116117
1486973,1531921245785,0.0628525,-0.00213059,-0.12464
1486974,1531921245805,0.0585913,-0.00319589,-0.117183
1486975,1531921245825,0.0436772,-0.00426119,-0.0980073
1486976,1531921245845,0.0276977,-0.00532648,-0.068179
1486977,1531921245865,0.01811,-0.0010653,-0.0372854
1486978,1531921245885,0.0010653,-0.0010653,-0.00426119
1486979,1531921245905,-0.0117183,-0.00213059,0.0191753
1486980,1531921245925,-0.0149142,0.00213059,0.0319589
1486981,1531921245945,-0.0159795,0.00213059,0.0330242
1486982,1531921245966,-0.0170448,0.0010653,0.0308936
1486983,1531921245986,-0.0138489,0.0,0.0266324
1486984,1531921246006,-0.00958767,0.0,0.01811
1486985,1531921246026,-0.00426119,0.00213059,0.010653
1486986,1531921246046,0.0,0.00213059,0.00319589
1486987,1531921246066,0.0010653,0.00319589,0.0
1486988,1531921246086,0.00213059,0.0,-0.00319589
1486989,1531921246106,0.00213059,-0.0010653,0.0
1486990,1531921246126,0.00213059,0.00532648,0.0
1486991,1531921246146,0.0010653,0.0010653,0.0010653
1486992,1531921246166,-0.0010653,0.00319589,0.00639178
1486993,1531921246186,-0.0010653,0.0010653,0.00745708
1486994,1531921246206,-0.00319589,0.0010653,0.00639178
1486995,1531921246226,-0.00426119,0.0,0.00852238
1486996,1531921246247,-0.00426119,0.0,0.00852238
1486997,1531921246264,-0.00213059,0.0,0.00745708
1486998,1531921246284,-0.00213059,0.0010653,0.00852238
1486999,1531921246306,-0.00426119,0.0,0.00958767
1487000,1531921246330,-0.00426119,0.0010653,0.00958767
1487001,1531921246344,-0.00426119,-0.0010653,0.00745708
1487002,1531921246367,-0.00426119,-0.0010653,0.00745708
1487003,1531921246387,-0.0010653,-0.0010653,0.00426119
1487004,1531921246406,-0.0010653,0.0,0.0
1487005,1531921246425,0.0010653,-0.00213059,-0.0010653
1487006,1531921246443,-0.0010653,0.0,0.0
1487007,1531921246467,0.0,-0.0010653,0.00213059
1487008,1531921246487,-0.00319589,-0.00213059,0.00639178
1487009,1531921246507,-0.00319589,-0.0010653,0.00745708
1487010,1531921246526,0.0,0.00213059,0.0
1487011,1531921246547,0.00319589,0.0,-0.00426119
1487012,1531921246567,0.00319589,0.0,-0.00745708
1487013,1531921246587,0.00532648,-0.0010653,-0.00639178
1487014,1531921246607,0.00319589,0.0010653,-0.00639178
1487015,1531921246627,0.00319589,0.00319589,-0.00426119
1487016,1531921246647,0.00426119,0.0010653,-0.00532648
1487017,1531921246667,0.00426119,0.00213059,-0.00745708
1487018,1531921246687,0.00532648,0.0,-0.00745708
1487019,1531921246707,-0.0010653,-0.0010653,0.00213059
1487020,1531921246728,-0.00532648,-0.00213059,0.0117183
1487021,1531921246748,-0.0127836,0.0,0.0213059
1487022,1531921246768,-0.0138489,-0.00213059,0.0245018
1487023,1531921246788,-0.0149142,-0.00426119,0.0255671
1487024,1531921246808,-0.0159795,-0.00426119,0.0202406
1487025,1531921246828,-0.00426119,0.0,0.00745708
1487026,1531921246848,0.00213059,0.0,-0.00958767
1487027,1531921246868,0.010653,0.0010653,-0.0202406
1487028,1531921246888,0.0149142,0.0,-0.0298283
1487029,1531921246908,0.0159795,0.0,-0.0255671
1487030,1531921246928,0.0138489,0.0,-0.0191753
1487031,1531921246948,0.00639178,0.0010653,-0.00639178
1487032,1531921246968,0.0010653,0.00319589,0.00532648
1487033,1531921246988,-0.00639178,0.0010653,0.0149142
1487034,1531921247009,-0.00958767,-0.00213059,0.0234365
1487035,1531921247029,-0.00958767,0.00319589,0.0245018
1487036,1531921247049,-0.00958767,0.0010653,0.0223712
1487037,1531921247069,-0.00745708,0.0,0.0138489
1487038,1531921247089,-0.00426119,0.0010653,0.00745708
1487039,1531921247109,-0.0010653,-0.0010653,-0.0010653
1487040,1531921247129,0.00213059,0.00213059,-0.00852238
1487041,1531921247149,0.00532648,0.0010653,-0.010653
1487042,1531921247169,0.00532648,-0.00213059,-0.00958767
1487043,1531921247189,0.00213059,-0.00213059,-0.010653
1487044,1531921247210,0.00319589,0.0010653,-0.00532648
1487045,1531921247229,0.0010653,0.0010653,-0.00319589
1487046,1531921247249,0.0,-0.0010653,0.0010653
1487047,1531921247267,-0.00213059,-0.0010653,0.00213059
1487048,1531921247288,-0.00213059,-0.0010653,0.00319589
1487049,1531921247309,0.0,-0.0010653,0.0
1487050,1531921247331,0.0,-0.0010653,-0.00213059
1487051,1531921247348,0.00213059,0.00213059,-0.00319589
1487052,1531921247368,-0.00213059,-0.0010653,-0.00213059
1487053,1531921247389,0.0,0.0010653,0.0
1487054,1531921247409,0.0010653,0.0,0.00213059
1487055,1531921247428,-0.0010653,-0.0010653,0.00319589
1487056,1531921247450,-0.00213059,-0.0010653,0.00426119
1487057,1531921247469,-0.00213059,-0.0010653,0.00319589
1487058,1531921247490,-0.00213059,-0.0010653,0.00426119
1487059,1531921247510,-0.0010653,0.0,0.00426119
1487060,1531921247530,-0.00213059,-0.00319589,0.00213059
1487061,1531921247550,-0.0010653,-0.0010653,0.00426119
1487062,1531921247570,0.0,0.00213059,0.00426119
1487063,1531921247590,-0.00213059,0.0010653,0.00639178
1487064,1531921247610,-0.00213059,0.0,0.00852238
1487065,1531921247630,-0.00213059,0.0,0.00852238
1487066,1531921247650,-0.00213059,0.0,0.00639178
1487067,1531921247670,0.0,0.0,0.00532648
1487068,1531921247690,-0.0010653,0.0,0.00213059
1487069,1531921247710,0.0010653,-0.0010653,0.00213059
1487070,1531921247730,0.0010653,0.0010653,0.00426119
1487071,1531921247750,0.0,0.0,0.00426119
1487072,1531921247770,-0.0010653,0.0,0.00426119
1487073,1531921247791,-0.0010653,0.0010653,0.00426119
1487074,1531921247811,-0.00213059,-0.0010653,0.00532648
1487075,1531921247831,0.0,0.0,0.00213059
1487076,1531921247851,0.0,0.0,0.0010653
1487077,1531921247871,-0.0010653,-0.0010653,0.0010653
1487078,1531921247889,-0.0010653,-0.0010653,0.00426119
1487079,1531921247911,0.0,0.0010653,0.00213059
1487080,1531921247931,0.0,0.0010653,0.00639178
1487081,1531921247951,-0.0010653,0.00213059,0.00319589
1487082,1531921247971,-0.0010653,0.0,0.00213059
1487083,1531921247991,0.0010653,-0.0010653,0.0
1487084,1531921248011,0.0,-0.0010653,-0.0010653
1487085,1531921248031,0.0010653,-0.00213059,-0.0010653
1487086,1531921248051,-0.0010653,-0.0010653,0.0010653
1487087,1531921248071,0.0,0.0010653,0.00213059
1487088,1531921248091,-0.0010653,-0.0010653,0.00319589
1487089,1531921248112,0.0,-0.0010653,0.00213059
1487090,1531921248132,-0.00213059,-0.0010653,0.0010653
1487091,1531921248152,0.0,-0.0010653,0.0
1487092,1531921248172,0.0,0.0,-0.0010653
1487093,1531921248192,-0.0010653,0.0,0.0
1487094,1531921248213,0.0,0.0010653,-0.00213059
1487095,1531921248230,-0.0010653,0.0,0.00213059
1487096,1531921248253,0.0,0.0,0.00319589
1487097,1531921248268,-0.0010653,0.00213059,0.00319589
1487098,1531921248290,-0.00213059,0.0010653,0.00319589
1487099,1531921248312,-0.0010653,0.0010653,0.00319589
1487100,1531921248338,-0.0010653,0.0010653,0.00319589
1487101,1531921248349,-0.0010653,0.0,0.00426119
1487102,1531921248371,-0.0010653,0.0,0.00319589
1487103,1531921248389,0.0010653,0.0010653,0.00213059
1487104,1531921248411,-0.0010653,0.0,0.00639178
1487105,1531921248433,-0.00213059,-0.00213059,0.00745708
1487106,1531921248453,-0.00426119,0.00213059,0.00745708
1487107,1531921248471,-0.00213059,0.0010653,0.00745708
1487108,1531921248493,-0.0010653,-0.0010653,0.00426119
1487109,1531921248513,-0.00213059,0.00213059,0.00319589
1487110,1531921248533,0.0,0.0,0.00213059
1487111,1531921248554,0.0010653,0.0,0.00319589
1487112,1531921248574,0.0010653,0.0010653,0.00426119
1487113,1531921248593,-0.0010653,0.0,0.00532648
1487114,1531921248614,0.0,0.0010653,0.00532648
1487115,1531921248634,-0.00213059,0.0,0.00319589
1487116,1531921248654,-0.00213059,0.0010653,0.00319589
1487117,1531921248674,-0.0010653,0.0010653,0.0010653
1487118,1531921248694,-0.0010653,-0.0010653,0.0010653
1487119,1531921248714,0.0,-0.0010653,0.0010653
1487120,1531921248734,0.0,-0.0010653,0.0010653
1487121,1531921248754,-0.0010653,0.0,0.0
1487122,1531921248774,-0.00213059,-0.0010653,-0.0010653
1487123,1531921248794,0.00213059,0.0,0.0
1487124,1531921248814,-0.0010653,0.0,-0.0010653
1487125,1531921248833,0.0,0.0,0.00213059
1487126,1531921248853,-0.00213059,0.0,0.0
1487127,1531921248875,0.0010653,0.0,0.0010653
1487128,1531921248894,-0.0010653,0.0,0.0010653
1487129,1531921248914,0.0010653,-0.0010653,0.0
1487130,1531921248934,0.0,-0.0010653,0.0010653
1487131,1531921248954,0.0,-0.0010653,0.0
1487132,1531921248975,0.0010653,-0.0010653,0.0010653
1487133,1531921248995,0.0,0.0,0.00319589
1487134,1531921249015,-0.0010653,0.0,0.00213059
1487135,1531921249035,0.0,0.0010653,0.00213059
1487136,1531921249055,0.0,0.0010653,0.00319589
1487137,1531921249075,-0.0010653,0.0010653,0.00426119
1487138,1531921249095,-0.0010653,-0.0010653,0.00319589
1487139,1531921249115,0.0,0.0,0.00213059
1487140,1531921249135,0.0010653,0.0010653,0.0010653
1487141,1531921249155,0.0010653,-0.0010653,-0.0010653
1487142,1531921249175,0.00213059,0.00213059,0.0010653
1487143,1531921249195,-0.0010653,0.0,0.00426119
1487144,1531921249216,-0.00213059,0.0,0.00532648
1487145,1531921249236,-0.00319589,0.0,0.00745708
1487146,1531921249255,-0.00319589,0.0010653,0.010653
1487147,1531921249273,-0.00532648,0.0010653,0.0138489
1487148,1531921249296,-0.00319589,0.00213059,0.010653
1487149,1531921249316,0.0,0.00213059,0.00958767
1487150,1531921249336,0.0010653,0.0,0.00639178
1487151,1531921249356,-0.00213059,-0.0010653,0.00319589
1487152,1531921249376,0.0,0.0,-0.0010653
1487153,1531921249396,0.0010653,0.0,0.0
1487154,1531921249416,0.0010653,-0.0010653,-0.00213059
1487155,1531921249436,0.0,-0.00213059,-0.00319589
1487156,1531921249456,-0.0010653,0.0,0.0
1487157,1531921249475,-0.0010653,-0.00213059,0.00213059
1487158,1531921249496,-0.00213059,-0.0010653,0.00426119
1487159,1531921249516,-0.00213059,-0.00213059,0.0
1487160,1531921249536,-0.00532648,0.0,0.0
1487161,1531921249556,-0.0010653,-0.0010653,-0.00213059
1487162,1531921249576,0.0010653,0.0,-0.00213059
1487163,1531921249596,0.0010653,-0.00319589,-0.00319589
1487164,1531921249616,0.0,-0.0010653,-0.00319589
1487165,1531921249637,0.0010653,-0.0010653,-0.00319589
1487166,1531921249657,0.0,-0.00213059,-0.00213059
1487167,1531921249677,-0.00213059,-0.0010653,0.00319589
1487168,1531921249697,-0.0010653,-0.00213059,0.0
1487169,1531921249717,-0.0010653,-0.00319589,0.0
1487170,1531921249737,-0.0010653,-0.0010653,-0.0010653
1487171,1531921249757,-0.0010653,-0.00319589,0.0010653
1487172,1531921249777,-0.0010653,-0.00213059,-0.0010653
1487173,1531921249797,0.0,-0.00426119,0.0
1487174,1531921249816,-0.0010653,-0.00319589,0.00426119
1487175,1531921249837,-0.00319589,-0.00213059,0.00532648
1487176,1531921249857,-0.00213059,-0.00319589,0.00745708
1487177,1531921249877,-0.00319589,-0.00213059,0.00639178
1487178,1531921249897,-0.0010653,-0.00213059,0.00532648
1487179,1531921249917,-0.00319589,0.0,0.00426119
1487180,1531921249937,-0.0010653,-0.00213059,0.00532648
1487181,1531921249957,-0.00319589,-0.0010653,0.00852238
1487182,1531921249978,-0.00213059,-0.00213059,0.010653
1487183,1531921249998,-0.00213059,-0.0010653,0.0127836
1487184,1531921250018,-0.00639178,-0.00213059,0.0159795
1487185,1531921250037,-0.00958767,-0.00426119,0.0202406
1487186,1531921250057,-0.00852238,-0.00532648,0.0223712
1487187,1531921250078,-0.00639178,0.0010653,0.0170448
1487188,1531921250097,-0.00852238,-0.00213059,0.0127836
1487189,1531921250117,-0.00319589,-0.00426119,0.00639178
1487190,1531921250137,-0.00213059,-0.00213059,0.00213059
1487191,1531921250157,-0.0010653,-0.00319589,0.0010653
1487192,1531921250178,-0.0010653,-0.0010653,-0.00319589
1487193,1531921250198,0.0,-0.0010653,-0.00745708
1487194,1531921250218,0.00213059,-0.00213059,-0.00745708
1487195,1531921250238,-0.0010653,-0.00213059,-0.00213059
1487196,1531921250257,-0.00426119,0.0,0.00426119
1487197,1531921250276,-0.00852238,-0.0010653,0.00745708
1487198,1531921250299,-0.0117183,-0.0010653,0.0149142
1487199,1531921250319,-0.0234365,-0.00639178,0.0308936
1487200,1531921250339,-0.0213059,0.0127836,0.0383507
1487201,1531921250359,-0.028763,0.0117183,0.0479384
1487202,1531921250379,-0.0330242,0.00852238,0.039416
1487203,1531921250399,-0.0266324,-0.0117183,0.0213059
1487204,1531921250419,-0.0170448,-0.0351548,-0.00639178
1487205,1531921250439,0.0127836,-0.0159795,-0.039416
1487206,1531921250459,0.0564607,0.0170448,-0.0649831
1487207,1531921250479,0.0607219,0.00639178,-0.0873543
1487208,1531921250499,0.0532648,0.00745708,-0.0884196
1487209,1531921250519,0.050069,0.0149142,-0.0724402
1487210,1531921250538,0.0255671,0.00426119,-0.0383507
1487211,1531921250559,0.00639178,0.00639178,-0.00852238
1487212,1531921250579,0.0010653,0.00213059,0.0159795
1487213,1531921250599,-0.00958767,-0.00213059,0.0266324
1487214,1531921250619,-0.00852238,0.0,0.028763
1487215,1531921250639,-0.00639178,0.00319589,0.0223712
1487216,1531921250659,-0.00213059,0.00426119,0.0138489
1487217,1531921250679,-0.0010653,0.00319589,0.00958767
1487218,1531921250699,0.0,0.00213059,0.00852238
1487219,1531921250720,-0.00319589,0.00426119,0.00426119
1487220,1531921250740,-0.00213059,0.00319589,0.00213059
1487221,1531921250760,-0.00426119,-0.0010653,0.00213059
1487222,1531921250780,-0.00532648,0.0010653,0.00319589
1487223,1531921250800,-0.0010653,0.0,0.0010653
1487224,1531921250820,-0.00213059,0.0,-0.0010653
1487225,1531921250840,0.0,0.0,-0.0010653
1487226,1531921250860,0.0,-0.0010653,-0.0010653
1487227,1531921250880,-0.0010653,-0.0010653,-0.00426119
1487228,1531921250899,0.0,-0.0010653,-0.0010653
1487229,1531921250920,0.00213059,-0.00213059,-0.0010653
1487230,1531921250940,0.0010653,0.00213059,-0.0010653
1487231,1531921250960,-0.0010653,0.0,0.0
1487232,1531921250980,0.0,-0.00213059,0.00213059
1487233,1531921251000,0.0,-0.00213059,0.00426119
1487234,1531921251020,-0.0010653,0.0010653,0.00319589
1487235,1531921251040,-0.00213059,0.00213059,0.00639178
1487236,1531921251060,-0.00213059,0.0010653,0.00532648
1487237,1531921251081,-0.00213059,-0.0010653,0.00745708
1487238,1531921251101,-0.00319589,0.0,0.00745708
1487239,1531921251121,-0.00213059,0.0,0.00745708
1487240,1531921251141,-0.0010653,0.0,0.00639178
1487241,1531921251161,-0.0010653,-0.0010653,0.00532648
1487242,1531921251181,-0.0010653,0.00213059,0.00319589
1487243,1531921251201,-0.0010653,0.0010653,0.00319589
1487244,1531921251221,0.00213059,0.0,0.00319589
1487245,1531921251240,-0.0010653,0.0010653,0.00426119
1487246,1531921251259,-0.00213059,0.0,0.00532648
1487247,1531921251280,-0.00213059,-0.00213059,0.00213059
1487248,1531921251298,-0.0010653,0.0,0.0010653
1487249,1531921251319,0.0010653,0.0,-0.00213059
1487250,1531921251339,0.0010653,0.0,-0.00213059
1487251,1531921251360,0.0,-0.00213059,-0.0010653
1487252,1531921251382,0.0010653,0.0010653,0.0010653
1487253,1531921251402,-0.0010653,0.0,0.00213059
1487254,1531921251417,0.0010653,0.0,0.00213059
1487255,1531921251437,0.0,-0.0010653,0.00213059
1487256,1531921251459,0.0,0.0,-0.0010653
1487257,1531921251480,-0.0010653,0.0,0.0010653
1487258,1531921251502,0.0010653,0.0010653,0.00319589
1487259,1531921251521,-0.00213059,-0.0010653,0.00319589
1487260,1531921251542,-0.00213059,0.0,0.00426119
1487261,1531921251562,-0.00213059,-0.0010653,0.00639178
1487262,1531921251582,-0.00532648,0.0010653,0.00745708
1487263,1531921251602,-0.00213059,-0.0010653,0.00852238
1487264,1531921251622,-0.0010653,-0.0010653,0.00745708
1487265,1531921251642,-0.0010653,0.0,0.00639178
1487266,1531921251662,-0.0010653,0.0010653,0.00532648
1487267,1531921251682,0.0,0.0,0.00213059
1487268,1531921251702,-0.0010653,0.0,0.0010653
1487269,1531921251722,0.0,0.00213059,0.0010653
1487270,1531921251742,0.00319589,-0.00319589,0.0
1487271,1531921251762,0.0010653,0.0010653,-0.0010653
1487272,1531921251783,0.0010653,0.0,-0.00213059
1487273,1531921251802,0.00319589,-0.00213059,-0.00213059
1487274,1531921251823,0.0010653,-0.00213059,-0.0010653
1487275,1531921251843,0.00213059,-0.0010653,-0.00426119
1487276,1531921251863,-0.00213059,-0.0010653,0.00213059
1487277,1531921251883,-0.0010653,-0.00319589,0.00213059
1487278,1531921251903,-0.0010653,0.0010653,0.0
1487279,1531921251922,0.0010653,0.0010653,0.0
1487280,1531921251943,0.00213059,0.0,-0.0010653
1487281,1531921251963,0.0010653,0.0,-0.0010653
1487282,1531921251983,0.0010653,0.0010653,0.0
1487283,1531921252003,-0.00319589,-0.0010653,0.00319589
1487284,1531921252023,-0.0010653,0.00213059,0.00532648
1487285,1531921252043,-0.00319589,-0.0010653,0.00852238
1487286,1531921252063,-0.00319589,0.00213059,0.00639178
1487287,1531921252083,-0.00319589,0.00213059,0.00639178
1487288,1531921252103,-0.00213059,0.0010653,0.00639178
1487289,1531921252123,-0.0010653,0.0010653,0.00532648
1487290,1531921252142,-0.0010653,0.0010653,0.00532648
1487291,1531921252163,0.0,0.0010653,0.00426119
1487292,1531921252184,-0.0010653,0.00213059,0.00745708
1487293,1531921252204,-0.00213059,-0.0010653,0.00639178
1487294,1531921252224,-0.00213059,0.0,0.00852238
1487295,1531921252244,-0.0010653,0.0,0.00958767
1487296,1531921252264,-0.00319589,-0.0010653,0.00745708
1487297,1531921252280,0.0,0.0,0.00532648
1487298,1531921252302,0.0,0.0,0.00319589
1487299,1531921252324,0.0,0.0,0.0010653
1487300,1531921252344,0.0010653,0.0,0.0
1487301,1531921252364,-0.0010653,0.00213059,0.00319589
1487302,1531921252384,-0.00213059,-0.00213059,0.00319589
1487303,1531921252404,-0.00319589,0.0010653,0.00532648
1487304,1531921252424,-0.0010653,0.0010653,0.00639178
1487305,1531921252442,-0.00213059,0.0,0.00532648
1487306,1531921252460,-0.00319589,-0.0010653,0.00639178
1487307,1531921252483,-0.00319589,0.0,0.00319589
1487308,1531921252503,-0.0010653,0.0,0.00532648
1487309,1531921252522,-0.00319589,0.0,0.00745708
1487310,1531921252544,-0.00426119,0.0,0.00958767
1487311,1531921252564,-0.00532648,-0.0010653,0.010653
1487312,1531921252584,-0.010653,-0.00213059,0.01811
1487313,1531921252604,-0.0117183,-0.00213059,0.0170448
1487314,1531921252624,-0.0138489,-0.00213059,0.0213059
1487315,1531921252644,-0.0149142,0.0,0.0276977
1487316,1531921252661,-0.0191753,-0.0010653,0.0319589
1487317,1531921252685,-0.0191753,-0.00213059,0.0362201
1487318,1531921252705,-0.0159795,0.0,0.0330242
1487319,1531921252725,-0.00958767,0.0010653,0.0245018
