id,attr_time,attr_lat,attr_lng
113,1532076519000,49.4341,11.112
114,1532076529000,49.4341,11.1121
115,1532076538000,49.434,11.1121
116,1532076548000,49.4341,11.1121
117,1532076558000,49.4341,11.1122
118,1532076569000,49.434,11.1122
119,1532076578000,49.434,11.1122
120,1532076588000,49.4341,11.1123
121,1532076608000,49.4342,11.1125
122,1532076612000,49.4342,11.1125
123,1532076623000,49.4343,11.1127
124,1532076632000,49.4344,11.1128
125,1532076642000,49.4343,11.1129
126,1532076652000,49.4343,11.1129
127,1532076662000,49.4343,11.113
128,1532076672000,49.4343,11.1132
129,1532076681000,49.4341,11.1132
130,1532076692000,49.4342,11.1132
131,1532076702000,49.4341,11.1133
132,1532076712000,49.4339,11.1133
133,1532076722000,49.4338,11.1134
134,1532076732000,49.4336,11.1134
135,1532076741000,49.4335,11.1136
136,1532076751000,49.4335,11.1137
137,1532076761000,49.4335,11.1139
138,1532076771000,49.4334,11.114
139,1532076781000,49.4333,11.1142
140,1532076791000,49.4333,11.1143
141,1532076801000,49.4332,11.1144
142,1532076811000,49.4331,11.1145
143,1532076821000,49.433,11.1146
144,1532076831000,49.4329,11.1147
145,1532076843000,49.4329,11.1147
146,1532076852000,49.4329,11.1146
147,1532076862000,49.4329,11.1145
148,1532076871000,49.4329,11.1144
149,1532076881000,49.4328,11.1144
150,1532076891000,49.4328,11.1144
151,1532076901000,49.4328,11.1143
152,1532076911000,49.4328,11.1142
153,1532076922000,49.4328,11.114
154,1532076932000,49.4326,11.1138
155,1532076942000,49.4325,11.1136
156,1532076953000,49.4328,11.1135
157,1532076962000,49.4328,11.1135
158,1532076972000,49.4327,11.1133
159,1532076983000,49.4326,11.1132
160,1532076992000,49.4326,11.1132
161,1532077002000,49.4327,11.113
162,1532077013000,49.4327,11.113
163,1532077024000,49.4327,11.113
164,1532077037000,49.4327,11.113
165,1532077043000,49.4327,11.113
166,1532077053000,49.4327,11.113
167,1532077063000,49.4327,11.113
168,1532077072000,49.4327,11.113
169,1532077082000,49.4326,11.113
170,1532077096000,49.4327,11.113
171,1532077104000,49.4327,11.113
172,1532077114000,49.4327,11.113
173,1532077124000,49.4327,11.113
174,1532077134000,49.4327,11.113
175,1532077145000,49.4327,11.113
176,1532077153000,49.4327,11.1129
177,1532077164000,49.4327,11.1129
178,1532077174000,49.4327,11.1129
179,1532077185000,49.4327,11.113
180,1532077192000,49.4327,11.1129
181,1532077202000,49.4327,11.1129
182,1532077212000,49.4327,11.1129
183,1532077223000,49.4327,11.113
184,1532077232000,49.4326,11.113
185,1532077242000,49.4326,11.1129
186,1532077252000,49.4327,11.1128
187,1532077262000,49.4326,11.1128
188,1532077271000,49.4326,11.1129
189,1532077282000,49.4326,11.1129
190,1532077292000,49.4326,11.1129
191,1532077302000,49.4326,11.1129
192,1532077312000,49.4327,11.1129
193,1532077322000,49.4326,11.1129
194,1532077332000,49.4326,11.1129
195,1532077341000,49.4326,11.1129
196,1532077352000,49.4326,11.1129
197,1532077361000,49.4326,11.1129
198,1532077371000,49.4326,11.1129
199,1532077381000,49.4326,11.1129
200,1532077392000,49.4326,11.1129
201,1532077401000,49.4326,11.1129
202,1532077412000,49.4326,11.1129
203,1532077421000,49.4327,11.1131
204,1532077431000,49.4328,11.1132
205,1532077441000,49.4328,11.1133
206,1532077451000,49.4328,11.1134
207,1532077462000,49.4328,11.1135
208,1532077471000,49.4328,11.1136
209,1532077481000,49.4328,11.1138
210,1532077492000,49.4329,11.114
211,1532077501000,49.433,11.1142
212,1532077511000,49.4329,11.1143
213,1532077521000,49.4328,11.1143
214,1532077531000,49.4328,11.1143
215,1532077541000,49.4327,11.1144
216,1532077551000,49.4326,11.1145
217,1532077561000,49.4325,11.1146
218,1532077572000,49.4325,11.1147
219,1532077581000,49.4324,11.1148
220,1532077591000,49.4323,11.115
221,1532077601000,49.4323,11.1151
222,1532077611000,49.4322,11.1152
223,1532077621000,49.4321,11.1152
224,1532077631000,49.432,11.1152
225,1532077641000,49.4319,11.1152
226,1532077651000,49.4318,11.115
227,1532077661000,49.4317,11.1149
228,1532077672000,49.4317,11.1147
229,1532077681000,49.4316,11.1147
230,1532077692000,49.4316,11.1145
231,1532077702000,49.4315,11.1145
232,1532077712000,49.4315,11.1143
233,1532077722000,49.4315,11.1143
234,1532077732000,49.4315,11.1143
235,1532077743000,49.4315,11.1143
236,1532077752000,49.4315,11.1143
237,1532077762000,49.4314,11.1142
238,1532077771000,49.4314,11.1141
239,1532077782000,49.4314,11.1141
240,1532077792000,49.4313,11.114
241,1532077801000,49.4313,11.1139
242,1532077811000,49.4312,11.1137
243,1532077821000,49.4311,11.1136
244,1532077831000,49.431,11.1137
245,1532077841000,49.4311,11.1137
246,1532077851000,49.4312,11.1137
247,1532077862000,49.4313,11.114
248,1532077873000,49.4313,11.114
249,1532077882000,49.4313,11.114
250,1532077891000,49.4312,11.1141
251,1532077901000,49.431,11.114
252,1532077911000,49.4309,11.1139
253,1532077921000,49.4309,11.1138
254,1532077931000,49.4309,11.1137
255,1532077941000,49.4308,11.1136
256,1532077951000,49.4307,11.1135
257,1532077961000,49.4307,11.1134
258,1532077971000,49.4306,11.1132
259,1532077981000,49.4305,11.1131
260,1532077991000,49.4304,11.113
261,1532078001000,49.4304,11.1129
262,1532078012000,49.4304,11.1128
263,1532078022000,49.4304,11.1129
264,1532078034000,49.4304,11.1129
265,1532078043000,49.4304,11.1129
266,1532078051000,49.4303,11.1129
267,1532078061000,49.4303,11.1129
268,1532078071000,49.4303,11.1128
269,1532078082000,49.4302,11.1128
270,1532078091000,49.4301,11.1128
271,1532078101000,49.43,11.1126
272,1532078111000,49.4299,11.1125
273,1532078121000,49.4299,11.1124
274,1532078131000,49.4298,11.1123
275,1532078142000,49.4298,11.1123
276,1532078152000,49.4298,11.1123
277,1532078161000,49.4298,11.1122
278,1532078171000,49.4297,11.1121
279,1532078182000,49.4296,11.1119
280,1532078191000,49.4295,11.1118
281,1532078201000,49.4294,11.1117
282,1532078211000,49.4294,11.1116
283,1532078222000,49.4293,11.1115
284,1532078232000,49.4293,11.1115
285,1532078241000,49.4293,11.1115
286,1532078252000,49.4293,11.1115
287,1532078261000,49.4292,11.1115
288,1532078271000,49.4291,11.1116
289,1532078281000,49.429,11.1117
290,1532078300000,49.4289,11.112
291,1532078311000,49.4288,11.1121
292,1532078321000,49.4287,11.1122
293,1532078331000,49.4286,11.1124
294,1532078341000,49.4286,11.1124
295,1532078352000,49.4286,11.1124
296,1532078361000,49.4286,11.1124
297,1532078371000,49.4286,11.1124
298,1532078382000,49.4287,11.1124
299,1532078393000,49.4287,11.1124
300,1532078403000,49.4287,11.1125
301,1532078414000,49.4287,11.1125
302,1532078424000,49.4287,11.1125
303,1532078433000,49.4288,11.1126
304,1532078444000,49.4288,11.1126
305,1532078453000,49.4288,11.1126
306,1532078463000,49.4288,11.1126
307,1532078473000,49.4288,11.1126
308,1532078483000,49.4288,11.1126
309,1532078494000,49.4288,11.1127
310,1532078503000,49.4288,11.1127
311,1532078513000,49.4288,11.1127
312,1532078524000,49.4288,11.1126
313,1532078534000,49.4288,11.1126
314,1532078544000,49.4288,11.1126
315,1532078554000,49.4287,11.1126
316,1532078563000,49.4288,11.1126
317,1532078573000,49.4288,11.1127
318,1532078583000,49.4288,11.1127
319,1532078594000,49.4287,11.1126
320,1532078603000,49.4287,11.1127
321,1532078614000,49.4287,11.1129
322,1532078624000,49.4285,11.1129
323,1532078640000,49.4282,11.113
324,1532078644000,49.4282,11.1131
325,1532078655000,49.4281,11.1132
326,1532078665000,49.4281,11.1133
327,1532078675000,49.4279,11.1134
328,1532078685000,49.4278,11.1135
329,1532078695000,49.4277,11.1136
330,1532078705000,49.4276,11.1138
331,1532078715000,49.4275,11.1138
332,1532078725000,49.4275,11.1139
333,1532078736000,49.4275,11.1141
334,1532078757000,49.4275,11.1141
335,1532078769000,49.4275,11.1141
336,1532078772000,49.4275,11.1141
337,1532078790000,49.4274,11.114
338,1532078800000,49.4274,11.114
339,1532078810000,49.4272,11.1141
340,1532078820000,49.4271,11.1142
341,1532078830000,49.4271,11.1144
342,1532078840000,49.427,11.1145
343,1532078850000,49.4269,11.1146
344,1532078860000,49.4268,11.1147
345,1532078870000,49.4267,11.1148
346,1532078880000,49.4266,11.1148
347,1532078890000,49.4265,11.1149
348,1532078900000,49.4265,11.1149
349,1532078910000,49.4265,11.1151
350,1532078920000,49.4264,11.1153
351,1532078930000,49.4263,11.1154
352,1532078940000,49.4263,11.1155
353,1532078950000,49.4264,11.1157
354,1532078960000,49.4264,11.1157
355,1532078970000,49.4264,11.1157
356,1532078979000,49.4264,11.1157
357,1532078989000,49.4264,11.1157
358,1532078999000,49.4264,11.1159
359,1532079009000,49.4264,11.1161
360,1532079020000,49.4265,11.1162
361,1532079029000,49.4266,11.1162
362,1532079039000,49.4266,11.1163
363,1532079050000,49.4267,11.1163
364,1532079060000,49.4268,11.1164
365,1532079070000,49.4268,11.1164
366,1532079080000,49.4268,11.1164
367,1532079090000,49.4268,11.1164
368,1532079100000,49.4268,11.1164
369,1532079120000,49.4268,11.1164
370,1532079130000,49.4268,11.1164
371,1532079140000,49.4268,11.1164
372,1532079150000,49.4268,11.1165
373,1532079160000,49.4268,11.1165
374,1532079170000,49.4268,11.1165
375,1532079180000,49.4268,11.1165
376,1532079190000,49.4268,11.1165
377,1532079200000,49.4268,11.1165
378,1532079209000,49.4268,11.1165
379,1532079220000,49.4268,11.1165
380,1532079229000,49.4268,11.1165
381,1532079240000,49.4268,11.1165
382,1532079250000,49.4268,11.1165
383,1532079260000,49.4268,11.1165
384,1532079270000,49.4268,11.1165
385,1532079280000,49.4268,11.1165
386,1532079290000,49.4268,11.1165
387,1532079300000,49.4269,11.1165
388,1532079309000,49.4269,11.1165
389,1532079320000,49.4269,11.1165
390,1532079330000,49.4269,11.1165
391,1532079340000,49.4269,11.1165
392,1532079350000,49.4269,11.1165
393,1532079370000,49.4269,11.1165
394,1532079380000,49.4269,11.1164
395,1532079390000,49.4269,11.1164
396,1532079399000,49.4269,11.1164
397,1532079409000,49.4269,11.1164
398,1532079419000,49.4268,11.1164
399,1532079429000,49.4268,11.1164
400,1532079440000,49.4268,11.1164
401,1532079450000,49.4268,11.1164
402,1532079460000,49.4268,11.1164
403,1532079470000,49.4268,11.1164
404,1532079490000,49.4268,11.1164
405,1532079500000,49.4268,11.1164
406,1532079509000,49.4268,11.1164
407,1532079519000,49.4268,11.1164
408,1532079529000,49.4268,11.1165
409,1532079540000,49.4268,11.1165
410,1532079550000,49.4268,11.1165
411,1532079560000,49.4268,11.1165
412,1532079570000,49.4268,11.1165
413,1532079579000,49.4268,11.1165
414,1532079590000,49.4268,11.1165
415,1532079599000,49.4269,11.1165
416,1532079609000,49.427,11.1164
417,1532079619000,49.4271,11.1165
418,1532079630000,49.4272,11.1165
419,1532079640000,49.4273,11.1166
420,1532079650000,49.4274,11.1167
421,1532079660000,49.4275,11.1167
422,1532079669000,49.4276,11.1168
423,1532079680000,49.4277,11.1168
424,1532079690000,49.4278,11.1169
425,1532079700000,49.4278,11.117
426,1532079709000,49.4279,11.117
427,1532079720000,49.4279,11.1171
428,1532079730000,49.428,11.1172
429,1532079739000,49.4281,11.1173
430,1532079749000,49.4281,11.1173
431,1532079759000,49.4282,11.1174
432,1532079770000,49.4283,11.1175
433,1532079780000,49.4284,11.1176
434,1532079789000,49.4284,11.1177
435,1532079800000,49.4285,11.1178
436,1532079809000,49.4286,11.1178
437,1532079820000,49.4287,11.1179
438,1532079829000,49.4288,11.118
439,1532079840000,49.4289,11.1181
440,1532079860000,49.429,11.1181
441,1532079880000,49.429,11.1181
442,1532079890000,49.429,11.1181
443,1532079900000,49.429,11.1181
444,1532079910000,49.429,11.1182
445,1532079920000,49.4293,11.1185
446,1532079929000,49.4293,11.1186
447,1532079939000,49.4293,11.1186
448,1532079950000,49.4294,11.1186
449,1532079959000,49.4295,11.1187
450,1532079969000,49.4296,11.1188
451,1532079979000,49.4297,11.1189
452,1532079989000,49.4298,11.1189
453,1532079999000,49.4298,11.119
454,1532080010000,49.4298,11.119
455,1532080030000,49.4298,11.119
456,1532080040000,49.4299,11.1191
457,1532080049000,49.4299,11.1191
458,1532080060000,49.4298,11.1192
459,1532080070000,49.4298,11.1193
460,1532080080000,49.4297,11.1194
461,1532080090000,49.4296,11.1196
462,1532080100000,49.4296,11.1197
463,1532080110000,49.4298,11.1199
464,1532080120000,49.4299,11.12
465,1532080130000,49.4299,11.1201
466,1532080150000,49.4297,11.1204
467,1532080160000,49.4301,11.1202
468,1532080170000,49.4301,11.1203
469,1532080179000,49.4302,11.1204
470,1532080189000,49.4303,11.1205
471,1532080200000,49.4303,11.1205
472,1532080212000,49.4305,11.1206
473,1532080222000,49.4306,11.1207
474,1532080232000,49.4307,11.1208
475,1532080242000,49.4308,11.1209
476,1532080252000,49.4309,11.1211
477,1532080262000,49.431,11.1211
478,1532080276000,49.431,11.1212
479,1532080285000,49.4311,11.1212
480,1532080293000,49.4312,11.1213
481,1532080304000,49.4313,11.1214
482,1532080314000,49.4314,11.1215
483,1532080324000,49.4315,11.1216
484,1532080334000,49.4316,11.1217
485,1532080344000,49.4317,11.1218
486,1532080354000,49.4318,11.1219
487,1532080364000,49.4319,11.122
488,1532080374000,49.432,11.122
489,1532080385000,49.432,11.1222
490,1532080395000,49.432,11.1226
491,1532080405000,49.4321,11.1226
492,1532080415000,49.432,11.1225
493,1532080424000,49.432,11.1225
494,1532080434000,49.432,11.1225
495,1532080444000,49.4319,11.1226
496,1532080455000,49.4319,11.1228
497,1532080466000,49.4318,11.1229
498,1532080476000,49.4319,11.1229
499,1532080486000,49.4319,11.1229
500,1532080495000,49.4319,11.1229
501,1532080506000,49.4319,11.123
502,1532080516000,49.4319,11.123
503,1532080525000,49.4319,11.1229
504,1532080536000,49.4319,11.1228
505,1532080545000,49.4319,11.1227
506,1532080555000,49.432,11.1225
507,1532080565000,49.432,11.1223
508,1532080575000,49.432,11.1222
509,1532080586000,49.432,11.122
510,1532080595000,49.4321,11.1219
511,1532080605000,49.4322,11.1219
512,1532080615000,49.4323,11.1218
513,1532080625000,49.4323,11.1216
514,1532080636000,49.4324,11.1215
515,1532080645000,49.4324,11.1215
516,1532080655000,49.4324,11.1214
517,1532080665000,49.4324,11.1214
518,1532080675000,49.4324,11.1215
519,1532080685000,49.4324,11.1215
520,1532080695000,49.4324,11.1215
521,1532080705000,49.4324,11.1214
522,1532080715000,49.4324,11.1213
523,1532080725000,49.4324,11.1212
524,1532080735000,49.4324,11.1212
525,1532080746000,49.4324,11.1212
526,1532080755000,49.4325,11.1212
527,1532080765000,49.4326,11.1212
528,1532080775000,49.4327,11.1212
529,1532080785000,49.4328,11.1212
530,1532080795000,49.4329,11.1212
531,1532080805000,49.4331,11.1211
532,1532080815000,49.4332,11.1211
533,1532080825000,49.4333,11.1211
534,1532080835000,49.4333,11.121
535,1532080845000,49.4334,11.121
536,1532080855000,49.4335,11.1209
537,1532080866000,49.4335,11.1209
538,1532080876000,49.4336,11.1209
539,1532080886000,49.4336,11.1207
540,1532080897000,49.4337,11.1209
541,1532080905000,49.4337,11.1208
542,1532080915000,49.4338,11.1208
543,1532080925000,49.4338,11.1207
544,1532080935000,49.4338,11.1205
545,1532080945000,49.4338,11.1203
546,1532080955000,49.4338,11.1201
547,1532080965000,49.4338,11.12
548,1532080975000,49.4338,11.1198
549,1532080985000,49.4338,11.1197
550,1532080995000,49.4338,11.1195
551,1532081005000,49.4338,11.1194
552,1532081015000,49.4339,11.1192
553,1532081025000,49.4339,11.1191
554,1532081036000,49.4339,11.1189
555,1532081045000,49.434,11.1188
556,1532081055000,49.434,11.1187
557,1532081065000,49.4341,11.1186
558,1532081075000,49.4342,11.1185
559,1532081086000,49.4342,11.1183
560,1532081095000,49.4343,11.1182
561,1532081106000,49.4344,11.1182
562,1532081116000,49.4345,11.1181
563,1532081125000,49.4345,11.118
564,1532081135000,49.4346,11.1179
565,1532081146000,49.4346,11.1177
566,1532081155000,49.4347,11.1176
567,1532081166000,49.4348,11.1175
568,1532081176000,49.4348,11.1174
569,1532081186000,49.4349,11.1175
570,1532081197000,49.4349,11.1175
571,1532081206000,49.4349,11.1175
572,1532081215000,49.4349,11.1174
573,1532081226000,49.4349,11.1174
574,1532081235000,49.435,11.1173
575,1532081246000,49.4351,11.1172
576,1532081256000,49.4352,11.1171
577,1532081265000,49.4352,11.1169
578,1532081276000,49.4352,11.1168
579,1532081286000,49.4353,11.1167
580,1532081295000,49.4354,11.1165
581,1532081306000,49.4353,11.1163
582,1532081316000,49.4353,11.1162
583,1532081326000,49.4352,11.116
584,1532081335000,49.4351,11.1158
585,1532081346000,49.435,11.1156
586,1532081355000,49.4349,11.1154
587,1532081366000,49.4349,11.1153
588,1532081375000,49.4349,11.1151
589,1532081386000,49.4348,11.1149
590,1532081395000,49.4348,11.1148
591,1532081405000,49.4347,11.1146
592,1532081415000,49.4346,11.1145
593,1532081425000,49.4345,11.1143
594,1532081435000,49.4345,11.1141
595,1532081445000,49.4344,11.1139
596,1532081456000,49.4344,11.1137
597,1532081465000,49.4344,11.1136
598,1532081476000,49.4343,11.1134
